# VTI Measurement
# Saved on: 26.11.2015 12:46:37
# Sweep type: magnetic field
# Sweep range: 0.100000-0.000000
# Sweep increment: -0.050000
# Magnetic Field Vector: magnitude=0.0747T, phi=0.05deg, theta=2.38deg
# Temperature: 132.82K
# Columns: FREQ MLIN MLOG PHAS REAL IMAG
1.000000E+7 1.000237 0.002054 -48.525425 0.662444 -0.749427
1.331166E+7 0.998052 -0.016938 -64.630623 0.427618 -0.901804
1.662333E+7 0.994117 -0.051248 -80.999954 0.155515 -0.981878
1.993499E+7 0.988943 -0.096577 -97.599342 -0.130783 -0.980257
2.324666E+7 0.983028 -0.148685 -114.469040 -0.407171 -0.894737
2.655832E+7 0.976127 -0.209874 -131.651886 -0.648737 -0.729359
2.986998E+7 0.968307 -0.279740 -149.135284 -0.831176 -0.496754
3.318165E+7 0.959540 -0.358736 -166.838974 -0.934337 -0.218476
3.649331E+7 0.950092 -0.444682 175.342377 -0.946955 0.077149
3.980498E+7 0.939721 -0.540023 157.479477 -0.868060 0.359927
4.311664E+7 0.928467 -0.644674 139.676544 -0.707866 0.600813
4.642830E+7 0.917041 -0.752224 122.032684 -0.486401 0.777418
4.973997E+7 0.906606 -0.851628 104.571930 -0.228098 0.877443
5.305163E+7 0.898527 -0.929382 87.230576 0.043414 0.897477
5.636330E+7 0.893542 -0.977699 70.200012 0.302676 0.840717
5.967496E+7 0.892090 -0.991825 53.446934 0.531300 0.716621
6.298662E+7 0.894332 -0.970021 37.025063 0.714010 0.538535
6.629829E+7 0.899779 -0.917283 20.970530 0.840182 0.322020
6.960995E+7 0.907596 -0.842145 5.293242 0.903726 0.083729
7.292162E+7 0.916447 -0.757850 -10.051004 0.902382 -0.159943
7.623328E+7 0.925415 -0.673265 -25.140495 0.837750 -0.393153
7.954494E+7 0.933303 -0.599545 -40.115738 0.713738 -0.601359
8.285661E+7 0.939557 -0.541535 -55.155682 0.536815 -0.771102
8.616827E+7 0.943571 -0.504507 -70.432968 0.316011 -0.889080
8.947993E+7 0.945168 -0.489820 -86.087128 0.064498 -0.942965
9.279160E+7 0.943890 -0.501574 -102.237274 -0.200067 -0.922443
9.610326E+7 0.939642 -0.540750 -118.903748 -0.454166 -0.822594
9.941493E+7 0.932065 -0.611073 -136.030441 -0.670816 -0.647111
1.027266E+8 0.921261 -0.712343 -153.526169 -0.824656 -0.410688
1.060383E+8 0.907758 -0.840601 -171.272552 -0.897247 -0.137738
1.093499E+8 0.892470 -0.988128 170.815918 -0.881029 0.142444
1.126616E+8 0.876695 -1.143029 152.810135 -0.779818 0.400598
1.159732E+8 0.862250 -1.287339 134.740265 -0.606932 0.612460
1.192849E+8 0.850810 -1.403350 116.625900 -0.381302 0.760583
1.225966E+8 0.843736 -1.475867 98.656509 -0.126991 0.834125
1.259082E+8 0.842202 -1.491671 80.906197 0.133111 0.831617
1.292199E+8 0.845827 -1.454374 63.521080 0.377127 0.757098
1.325316E+8 0.853500 -1.375933 46.699562 0.585351 0.621149
1.358432E+8 0.863785 -1.271889 30.549576 0.743883 0.439048
1.391549E+8 0.875059 -1.159257 15.065439 0.844983 0.227447
1.424666E+8 0.885930 -1.052011 0.134037 0.885928 0.002073
1.457782E+8 0.895433 -0.959337 -14.449406 0.867109 -0.223433
1.490899E+8 0.902843 -0.887753 -28.937445 0.790122 -0.436845
1.524016E+8 0.907743 -0.840741 -43.600487 0.657357 -0.626003
1.557132E+8 0.909943 -0.819713 -58.658920 0.473290 -0.777170
1.590249E+8 0.909083 -0.827932 -74.282921 0.246259 -0.875093
1.623365E+8 0.905012 -0.866916 -90.513672 -0.008114 -0.904975
1.656482E+8 0.897675 -0.937616 -107.297852 -0.266914 -0.857075
1.689599E+8 0.887579 -1.035863 -124.505043 -0.502795 -0.731432
1.722715E+8 0.874846 -1.161365 -141.957886 -0.688992 -0.539116
1.755832E+8 0.860568 -1.304295 -159.529465 -0.806225 -0.300963
1.788949E+8 0.846060 -1.451975 -177.166595 -0.845026 -0.041822
1.822065E+8 0.832523 -1.592080 165.120239 -0.804605 0.213785
1.855182E+8 0.821142 -1.711635 147.315552 -0.691120 0.443426
1.888299E+8 0.813157 -1.796514 129.434906 -0.516518 0.628039
1.921415E+8 0.809423 -1.836485 111.581764 -0.297729 0.752678
1.954532E+8 0.810205 -1.828102 93.941238 -0.055688 0.808289
1.987648E+8 0.815037 -1.776451 76.701897 0.187473 0.793183
2.020765E+8 0.822715 -1.695014 60.047165 0.410771 0.712830
2.053882E+8 0.831988 -1.597663 44.024338 0.598236 0.578201
2.086998E+8 0.841446 -1.499478 28.569178 0.738992 0.402396
2.120115E+8 0.849906 -1.412578 13.487880 0.826465 0.198232
2.153232E+8 0.856725 -1.343175 -1.466481 0.856444 -0.021925
2.186348E+8 0.861438 -1.295521 -16.543362 0.825778 -0.245287
2.219465E+8 0.863870 -1.271029 -31.946314 0.733032 -0.457095
2.252582E+8 0.864103 -1.268686 -47.799259 0.580444 -0.640124
2.285698E+8 0.862381 -1.286017 -64.112358 0.376522 -0.775843
2.318815E+8 0.859075 -1.319379 -80.761360 0.137922 -0.847931
2.351931E+8 0.854365 -1.367128 -97.566269 -0.112497 -0.846927
2.385048E+8 0.848404 -1.427948 -114.382538 -0.350244 -0.772734
2.418165E+8 0.841204 -1.501973 -131.096237 -0.552945 -0.633937
2.451281E+8 0.831336 -1.604471 -147.542709 -0.701474 -0.446153
2.484398E+8 0.821518 -1.707657 -164.173889 -0.790377 -0.224043
2.517515E+8 0.811581 -1.813359 179.064407 -0.811473 0.013252
2.550631E+8 0.801366 -1.923385 162.025864 -0.762256 0.247292
2.583748E+8 0.792222 -2.023066 144.710297 -0.646644 0.457675
2.616865E+8 0.785329 -2.098963 127.202492 -0.474837 0.625518
2.649981E+8 0.781523 -2.141163 109.685677 -0.263264 0.735847
2.683098E+8 0.780897 -2.148120 92.355141 -0.032090 0.780238
2.716215E+8 0.782711 -2.127975 75.373878 0.197643 0.757346
2.749331E+8 0.786310 -2.088124 58.779701 0.407568 0.672437
2.782448E+8 0.790307 -2.044080 42.481552 0.582848 0.533736
2.815564E+8 0.794142 -2.002033 26.331530 0.711744 0.352253
2.848681E+8 0.797649 -1.963764 10.156652 0.785149 0.140657
2.881798E+8 0.800859 -1.928877 -6.151153 0.796248 -0.085813
2.914914E+8 0.804375 -1.890831 -22.620615 0.742496 -0.309385
2.948031E+8 0.808703 -1.844223 -39.147491 0.627168 -0.510549
2.981148E+8 0.813833 -1.789290 -55.588100 0.459928 -0.671409
3.014264E+8 0.819127 -1.732977 -71.752823 0.256483 -0.777937
3.047381E+8 0.823607 -1.685598 -87.531120 0.035478 -0.822843
3.080498E+8 0.826096 -1.659390 -102.925713 -0.184787 -0.805163
3.113614E+8 0.825101 -1.669860 -118.068634 -0.388234 -0.728056
3.146731E+8 0.819844 -1.725377 -133.190460 -0.561122 -0.597734
3.179847E+8 0.810259 -1.827519 -148.547226 -0.691208 -0.422790
3.212964E+8 0.797067 -1.970107 -164.404068 -0.767720 -0.214292
3.246081E+8 0.781632 -2.139957 179.072861 -0.781529 0.012647
3.279197E+8 0.765869 -2.316912 161.862671 -0.727815 0.238412
3.312314E+8 0.751858 -2.477284 144.098160 -0.609022 0.440888
3.345431E+8 0.741184 -2.601482 126.065865 -0.436346 0.599129
3.378547E+8 0.734425 -2.681048 108.073387 -0.227844 0.698189
3.411664E+8 0.730946 -2.722291 90.366539 -0.004676 0.730931
3.444781E+8 0.730005 -2.733482 73.022621 0.213157 0.698192
3.477897E+8 0.730578 -2.726662 55.996948 0.408567 0.605655
3.511014E+8 0.732460 -2.704316 39.159451 0.567944 0.462535
3.544131E+8 0.736237 -2.659647 22.369642 0.680834 0.280197
3.577247E+8 0.742127 -2.590435 5.557156 0.738639 0.071867
3.610364E+8 0.750519 -2.492761 -11.175581 0.736288 -0.145463
3.643480E+8 0.761603 -2.365430 -27.663252 0.674545 -0.353592
3.676597E+8 0.774310 -2.221702 -43.744106 0.559389 -0.535388
3.709714E+8 0.786743 -2.083344 -59.311867 0.401526 -0.676566
3.742830E+8 0.796649 -1.974663 -74.374077 0.214582 -0.767205
3.775947E+8 0.802350 -1.912721 -89.054947 0.013234 -0.802241
3.809064E+8 0.802240 -1.913911 -103.599014 -0.188627 -0.779749
3.842180E+8 0.796007 -1.981664 -118.320526 -0.377629 -0.700731
3.875297E+8 0.783815 -2.115732 -133.525391 -0.539794 -0.568320
3.908414E+8 0.767126 -2.302665 -149.483536 -0.660866 -0.389536
3.941530E+8 0.747686 -2.525614 -166.317902 -0.726469 -0.176854
3.974647E+8 0.728233 -2.754597 176.040787 -0.726495 0.050282
4.007763E+8 0.711054 -2.961952 157.851440 -0.658585 0.268074
4.040880E+8 0.697474 -3.129444 139.490845 -0.530291 0.453058
4.073997E+8 0.688063 -3.247441 121.307121 -0.357535 0.587877
4.107113E+8 0.681828 -3.326499 103.505989 -0.159239 0.662973
4.140230E+8 0.678252 -3.372174 86.109909 0.046014 0.676690
4.173347E+8 0.676863 -3.389990 68.976791 0.242822 0.631807
4.206463E+8 0.678234 -3.372406 51.970364 0.417839 0.534240
4.239580E+8 0.682964 -3.312048 35.004688 0.559419 0.391778
4.272697E+8 0.691794 -3.200460 18.112740 0.657514 0.215070
4.305813E+8 0.704542 -3.041860 1.455922 0.704315 0.017901
4.338930E+8 0.720050 -2.852752 -14.753489 0.696310 -0.183368
4.372047E+8 0.736083 -2.661467 -30.365765 0.635104 -0.372103
4.405163E+8 0.750056 -2.498123 -45.368259 0.526950 -0.533768
4.438280E+8 0.759693 -2.387237 -59.895664 0.381044 -0.657221
4.471396E+8 0.763352 -2.345505 -74.225914 0.207513 -0.734605
4.504513E+8 0.760180 -2.381667 -88.719910 0.016982 -0.759991
4.537630E+8 0.750321 -2.495055 -103.773582 -0.178641 -0.728745
4.570746E+8 0.735101 -2.673064 -119.702629 -0.364241 -0.638515
4.603863E+8 0.716696 -2.893301 -136.659607 -0.521245 -0.491891
4.636980E+8 0.698106 -3.121570 -154.553879 -0.630383 -0.299950
4.670096E+8 0.682205 -3.321706 -173.029037 -0.677162 -0.082797
4.703213E+8 0.670705 -3.469369 168.445404 -0.657113 0.134343
4.736330E+8 0.663346 -3.565192 150.366455 -0.576584 0.327992
4.769446E+8 0.658835 -3.624465 133.006393 -0.449378 0.481791
4.802563E+8 0.655537 -3.668060 116.339470 -0.290854 0.587479
4.835679E+8 0.652273 -3.711413 100.139534 -0.114830 0.642086
4.868796E+8 0.649075 -3.754105 84.066994 0.067092 0.645598
4.901913E+8 0.646843 -3.784029 67.835014 0.244037 0.599042
4.935029E+8 0.647890 -3.769972 51.458054 0.403692 0.506749
4.968146E+8 0.651933 -3.715938 34.666874 0.536197 0.370822
5.001263E+8 0.661029 -3.595584 17.909634 0.628998 0.203278
5.034379E+8 0.673446 -3.433938 1.492293 0.673218 0.017538
5.067496E+8 0.687432 -3.255405 -14.347391 0.665992 -0.170346
5.100613E+8 0.700049 -3.097427 -29.574554 0.608843 -0.345513
5.133729E+8 0.709199 -2.984632 -44.350773 0.507130 -0.495765
5.166846E+8 0.713070 -2.937351 -58.977200 0.367502 -0.611075
5.199962E+8 0.710956 -2.963151 -73.833725 0.197948 -0.682843
5.233079E+8 0.703367 -3.056361 -89.263893 0.009036 -0.703309
5.266196E+8 0.691828 -3.200038 -105.507431 -0.184969 -0.666642
5.299312E+8 0.678579 -3.367991 -122.588493 -0.365484 -0.571744
5.332429E+8 0.666140 -3.528693 -140.291306 -0.512463 -0.425586
5.365546E+8 0.656314 -3.657762 -158.190445 -0.609338 -0.243836
5.398662E+8 0.649357 -3.750335 -175.833145 -0.647640 -0.047183
5.431779E+8 0.644000 -3.822284 167.079178 -0.627694 0.144001
5.464896E+8 0.638502 -3.896758 150.587952 -0.556206 0.313560
5.498012E+8 0.631465 -3.993009 134.497482 -0.442580 0.450412
5.531129E+8 0.622517 -4.116970 118.460289 -0.296660 0.547285
5.564246E+8 0.612371 -4.259704 102.130608 -0.128684 0.598698
5.597362E+8 0.603184 -4.390999 85.272675 0.049711 0.601132
5.630479E+8 0.597405 -4.474624 67.865829 0.225088 0.553379
5.663595E+8 0.597207 -4.477509 50.149380 0.382683 0.458486
5.696712E+8 0.603217 -4.390532 32.553112 0.508447 0.324580
5.729829E+8 0.614147 -4.234551 15.470500 0.591895 0.163819
5.762945E+8 0.627257 -4.051095 -0.904095 0.627178 -0.009897
5.796062E+8 0.639626 -3.881479 -16.595881 0.612981 -0.182690
5.829179E+8 0.649070 -3.754168 -31.867466 0.551237 -0.342681
5.862295E+8 0.654329 -3.684081 -47.080212 0.445581 -0.479170
5.895412E+8 0.655479 -3.668821 -62.559479 0.302063 -0.581731
5.928529E+8 0.653897 -3.689807 -78.550934 0.129797 -0.640886
5.961645E+8 0.651351 -3.723693 -95.068520 -0.057545 -0.648804
5.994762E+8 0.649503 -3.748384 -111.926773 -0.242538 -0.602519
6.027878E+8 0.648876 -3.756769 -128.769943 -0.406323 -0.505907
6.060995E+8 0.648766 -3.758238 -145.253433 -0.533079 -0.369763
6.094112E+8 0.647383 -3.776777 -161.195084 -0.612827 -0.208682
6.127228E+8 0.642490 -3.842676 -176.604126 -0.641362 -0.038057
6.160345E+8 0.632361 -3.980694 168.254883 -0.619121 0.128722
6.193462E+8 0.616661 -4.199064 152.963837 -0.549273 0.280305
6.226578E+8 0.596525 -4.487425 137.049927 -0.436625 0.406449
6.259695E+8 0.574774 -4.810054 120.105171 -0.288300 0.497241
6.292812E+8 0.555915 -5.099835 102.009537 -0.115672 0.543747
6.325928E+8 0.544647 -5.277694 83.001953 0.066357 0.540590
6.359045E+8 0.543898 -5.289651 63.772377 0.240369 0.487901
6.392162E+8 0.552956 -5.146188 45.157856 0.389920 0.392075
6.425278E+8 0.568271 -4.908884 27.708082 0.503107 0.264227
6.458395E+8 0.585256 -4.653084 11.512377 0.573482 0.116805
6.491511E+8 0.600115 -4.435314 -3.723362 0.598848 -0.038971
6.524628E+8 0.610715 -4.283230 -18.467665 0.579265 -0.193456
6.557745E+8 0.616785 -4.197323 -33.238113 0.515879 -0.338072
6.590861E+8 0.619140 -4.164218 -48.442993 0.410716 -0.463300
6.623978E+8 0.620160 -4.149920 -64.310402 0.268837 -0.558861
6.657095E+8 0.622057 -4.123402 -80.775986 0.099713 -0.614013
6.690211E+8 0.626116 -4.066900 -97.515228 -0.081890 -0.620738
6.723328E+8 0.632035 -3.985183 -114.078484 -0.257862 -0.577040
6.756445E+8 0.637684 -3.907883 -130.064774 -0.410448 -0.488031
6.789561E+8 0.640025 -3.876060 -145.317108 -0.526302 -0.364196
6.822678E+8 0.636281 -3.927019 -159.956024 -0.597741 -0.218080
6.855794E+8 0.624688 -4.086743 -174.341400 -0.621643 -0.061595
6.888911E+8 0.604992 -4.365008 171.023422 -0.597582 0.094397
6.922028E+8 0.578856 -4.748593 155.587173 -0.527101 0.239246
6.955144E+8 0.549791 -5.196055 138.867767 -0.414099 0.361652
6.988261E+8 0.523217 -5.626364 120.646332 -0.266703 0.450139
7.021378E+8 0.504687 -5.939559 101.162773 -0.097706 0.495139
7.054494E+8 0.497934 -6.056566 81.199959 0.076177 0.492072
7.087611E+8 0.502733 -5.973254 61.749493 0.237957 0.442851
7.120728E+8 0.515315 -5.758549 43.510830 0.373729 0.354790
7.153844E+8 0.530716 -5.502749 26.615047 0.474480 0.237758
7.186961E+8 0.545021 -5.271735 10.740473 0.535473 0.101570
7.220078E+8 0.556469 -5.091174 -4.639336 0.554646 -0.045009
7.253194E+8 0.565030 -4.958567 -20.032681 0.530844 -0.193555
7.286311E+8 0.572261 -4.848114 -35.766571 0.464336 -0.334478
7.319427E+8 0.579943 -4.732290 -51.939156 0.357534 -0.456622
7.352544E+8 0.589441 -4.591191 -68.344902 0.217515 -0.547840
7.385661E+8 0.600649 -4.427579 -84.600632 0.056519 -0.597984
7.418777E+8 0.611699 -4.269244 -100.339417 -0.109787 -0.601766
7.451894E+8 0.619653 -4.157029 -115.362473 -0.265424 -0.559928
7.485011E+8 0.621672 -4.128780 -129.726166 -0.397322 -0.478132
7.518127E+8 0.615506 -4.215350 -143.712418 -0.496133 -0.364280
7.551244E+8 0.600344 -4.431999 -157.751312 -0.555648 -0.227307
7.584361E+8 0.576872 -4.778412 -172.394577 -0.571797 -0.076349
7.617477E+8 0.547681 -5.229444 171.864426 -0.542169 0.077506
7.650594E+8 0.517262 -5.725784 154.656830 -0.467481 0.221408
7.683710E+8 0.491381 -6.171627 135.963043 -0.353250 0.341570
7.716827E+8 0.474967 -6.466740 116.323944 -0.210622 0.425713
7.749944E+8 0.469848 -6.560859 96.656830 -0.054466 0.466680
7.783060E+8 0.473826 -6.487631 77.833603 0.099859 0.463183
7.816177E+8 0.482567 -6.328842 60.218369 0.239689 0.418832
7.849294E+8 0.491806 -6.164119 43.656563 0.355817 0.339511
7.882410E+8 0.499112 -6.036038 27.628431 0.442200 0.231456
7.915527E+8 0.504240 -5.947250 11.568298 0.493997 0.101118
7.948644E+8 0.508504 -5.874106 -4.942364 0.506614 -0.043809
7.981760E+8 0.514524 -5.771896 -22.008945 0.477028 -0.192818
8.014877E+8 0.524690 -5.601948 -39.385250 0.405531 -0.332932
8.047993E+8 0.539439 -5.361154 -56.561119 0.297256 -0.450148
8.081110E+8 0.557130 -5.080870 -72.999390 0.162895 -0.532784
8.114227E+8 0.574132 -4.819767 -88.386650 0.016164 -0.573904
8.147343E+8 0.586464 -4.635175 -102.757790 -0.129509 -0.571985
8.180460E+8 0.590803 -4.571151 -116.412514 -0.262807 -0.529132
8.213577E+8 0.585362 -4.651504 -129.837204 -0.374988 -0.449481
8.246693E+8 0.570109 -4.880849 -143.610489 -0.458939 -0.338229
8.279810E+8 0.546842 -5.242756 -158.307709 -0.508116 -0.202125
8.312927E+8 0.519398 -5.689991 -174.376129 -0.516898 -0.050900
8.346043E+8 0.493254 -6.138592 168.010880 -0.482494 0.102462
8.379160E+8 0.474134 -6.481986 149.232895 -0.407401 0.242543
8.412277E+8 0.465227 -6.646698 130.121414 -0.299797 0.355750
8.445393E+8 0.465807 -6.635873 111.678520 -0.172068 0.432861
8.478510E+8 0.471565 -6.529171 94.510750 -0.037087 0.470104
8.511626E+8 0.477401 -6.422337 78.617874 0.094216 0.468012
8.544743E+8 0.479549 -6.383338 63.561325 0.213514 0.429394
8.577860E+8 0.476528 -6.438223 48.671619 0.314687 0.357843
8.610976E+8 0.468825 -6.579779 33.224812 0.392185 0.256881
8.644093E+8 0.459278 -6.758493 16.655548 0.440009 0.131637
8.677210E+8 0.452245 -6.892520 -1.204487 0.452145 -0.009507
8.710326E+8 0.452089 -6.895518 -19.994013 0.424841 -0.154579
8.743443E+8 0.460823 -6.729312 -38.882099 0.358723 -0.289268
8.776560E+8 0.476781 -6.433624 -56.986401 0.259768 -0.399800
8.809676E+8 0.495460 -6.099835 -73.839600 0.137900 -0.475882
8.842793E+8 0.511800 -5.818000 -89.466415 0.004766 -0.511777
8.875909E+8 0.522035 -5.646014 -104.265671 -0.128639 -0.505937
8.909026E+8 0.524312 -5.608210 -118.780731 -0.252434 -0.459543
8.942143E+8 0.519164 -5.693908 -133.547470 -0.357681 -0.376292
8.975259E+8 0.508880 -5.867688 -148.991425 -0.436156 -0.262158
9.008376E+8 0.497139 -6.070438 -165.271210 -0.480803 -0.126395
9.041493E+8 0.487849 -6.234295 177.824020 -0.487497 0.018523
9.074609E+8 0.483342 -6.314907 160.827911 -0.456534 0.158733
9.107726E+8 0.483310 -6.315484 144.390671 -0.392934 0.281410
9.140843E+8 0.484972 -6.285674 128.930817 -0.304747 0.377262
9.173959E+8 0.484598 -6.292364 114.481361 -0.200816 0.441031
9.207076E+8 0.478824 -6.396487 100.700508 -0.088906 0.470498
9.240193E+8 0.465786 -6.636268 87.009087 0.024304 0.465152
9.273309E+8 0.445541 -7.022255 72.653275 0.132839 0.425276
9.306426E+8 0.420391 -7.526937 56.837502 0.229960 0.351919
9.339542E+8 0.395437 -8.058455 38.889114 0.307793 0.248261
9.372659E+8 0.377927 -8.451842 18.654516 0.358072 0.120884
9.405776E+8 0.374254 -8.536660 -3.016841 0.373736 -0.019697
9.438892E+8 0.386315 -8.261165 -24.405954 0.351794 -0.159625
9.472009E+8 0.409675 -7.751208 -44.070240 0.294347 -0.284945
9.505126E+8 0.436743 -7.195471 -61.618435 0.207602 -0.384248
9.538242E+8 0.460799 -6.729764 -77.436615 0.100233 -0.449766
9.571359E+8 0.477921 -6.412884 -92.264732 -0.018886 -0.477547
9.604476E+8 0.487006 -6.249313 -106.810196 -0.140843 -0.466195
9.637592E+8 0.489460 -6.205658 -121.646751 -0.256810 -0.416677
9.670709E+8 0.488098 -6.229859 -137.062653 -0.357336 -0.332492
9.703825E+8 0.486361 -6.260818 -153.004318 -0.433368 -0.220771
9.736942E+8 0.486763 -6.253657 -169.089401 -0.477964 -0.092133
9.770059E+8 0.489661 -6.202091 175.245682 -0.487976 0.040585
9.803175E+8 0.493182 -6.139856 160.437866 -0.464715 0.165132
9.836292E+8 0.494088 -6.123921 146.635544 -0.412657 0.271730
9.869409E+8 0.489073 -6.212524 133.642944 -0.337540 0.353920
9.902525E+8 0.475895 -6.449775 121.012566 -0.245194 0.407868
9.935642E+8 0.453712 -6.864395 108.035393 -0.140471 0.431419
9.968759E+8 0.422992 -7.473361 93.917542 -0.028899 0.422003
1.000188E+9 0.387699 -8.230112 77.687531 0.082674 0.378781
1.003499E+9 0.355164 -8.991429 58.497604 0.185585 0.302819
1.006811E+9 0.334715 -9.506507 36.319672 0.269688 0.198248
1.010123E+9 0.333829 -9.529510 12.748104 0.325600 0.073665
1.013434E+9 0.352182 -9.064651 -9.614880 0.347235 -0.058823
1.016746E+9 0.381883 -8.361390 -29.223623 0.333277 -0.186443
1.020058E+9 0.413381 -7.672991 -46.137421 0.286444 -0.298049
1.023369E+9 0.439779 -7.135317 -61.196678 0.211887 -0.385369
1.026681E+9 0.457808 -6.786336 -75.358116 0.115723 -0.442940
1.029992E+9 0.467001 -6.613642 -89.424202 0.004693 -0.466978
1.033304E+9 0.469245 -6.572012 -103.949966 -0.113123 -0.455405
1.036616E+9 0.467574 -6.602987 -119.210068 -0.228182 -0.408116
1.039927E+9 0.465442 -6.642688 -135.133118 -0.329881 -0.328352
1.043239E+9 0.465160 -6.647948 -151.284042 -0.407951 -0.223494
1.046551E+9 0.466885 -6.615801 -167.101807 -0.455105 -0.104218
1.049862E+9 0.468623 -6.583529 177.829681 -0.468287 0.017747
1.053174E+9 0.467423 -6.605803 163.621704 -0.448455 0.131803
1.056486E+9 0.460512 -6.735188 150.035034 -0.398955 0.230012
1.059797E+9 0.446217 -7.009071 136.582916 -0.324119 0.306687
1.063109E+9 0.424746 -7.437407 122.606537 -0.228882 0.357802
1.066421E+9 0.398338 -7.994962 107.385742 -0.119025 0.380140
1.069732E+9 0.371434 -8.602356 90.268738 -0.001742 0.371430
1.073044E+9 0.350395 -9.108851 71.029900 0.113904 0.331364
1.076356E+9 0.341121 -9.341819 50.306927 0.217866 0.262485
